No.1		
X[mm]	Z[um]	
0.000000	24.222002	
0.000300	24.158750	
0.000600	24.112064	
0.000900	24.059856	
0.001200	24.001122	
0.001500	23.931846	
0.001800	23.867088	
0.002100	23.803836	
0.002400	23.761166	
0.002700	23.716990	
0.003000	23.659260	
0.003300	23.579944	
0.003600	23.536772	
0.003900	23.482054	
0.004200	23.420810	
0.004500	23.371614	
0.004800	23.337980	
0.005100	23.298322	
0.005400	23.244106	
0.005700	23.182862	
0.006000	23.133666	
0.006300	23.089992	
0.006600	23.035274	
0.006900	22.980556	
0.007200	22.939894	
0.007500	22.893208	
0.007800	22.834976	
0.008100	22.788792	
0.008400	22.746122	
0.008700	22.702448	
0.009000	22.663292	
0.009300	22.627650	
0.009600	22.604558	
0.009900	22.594518	
0.010200	22.586988	
0.010500	22.578956	
0.010800	22.552350	
0.011100	22.509178	
0.011400	22.462994	
0.011700	22.410284	
0.012000	22.373638	
0.012300	22.340004	
0.012600	22.295326	
0.012900	22.253660	
0.013200	22.208982	
0.013500	22.163300	
0.013800	22.121132	
0.014100	22.076956	
0.014400	22.031776	
0.014700	21.994628	
0.015000	21.965512	
0.015300	21.932882	
0.015600	21.899248	
0.015900	21.872140	
0.016200	21.839510	
0.016500	21.800354	
0.016800	21.761198	
0.017100	21.725054	
0.017400	21.687404	
0.017700	21.653268	
0.018000	21.622646	
0.018300	21.600056	
0.018600	21.581984	
0.018900	21.559896	
0.019200	21.540318	
0.019500	21.529274	
0.019800	21.512206	
0.020100	21.483592	
0.020400	21.445942	
0.020700	21.407790	
0.021000	21.369638	
0.021300	21.330984	
0.021600	21.292832	
0.021900	21.259700	
0.022200	21.219038	
0.022500	21.171348	
0.022800	21.139220	
0.023100	21.102574	
0.023400	21.061912	
0.023700	21.017736	
0.024000	20.981090	
0.024300	20.939424	
0.024600	20.901272	
0.024900	20.864626	
0.025200	20.828482	
0.025500	20.789828	
0.025800	20.761214	
0.026100	20.754688	
0.026400	20.732098	
0.026700	20.699468	
0.027000	20.661316	
0.027300	20.632702	
0.027600	20.636718	
0.027900	20.674870	
0.028200	20.667340	
0.028500	20.634208	
0.028800	20.606598	
0.029100	20.599570	
0.029400	20.579490	
0.029700	20.587522	
0.030000	20.588024	
0.030300	20.559912	
0.030600	20.518748	
0.030900	20.476580	
0.031200	20.453990	
0.031500	20.436922	
0.031800	20.424372	
0.032100	20.410818	
0.032400	20.399272	
0.032700	20.391240	
0.033000	20.388730	
0.033300	20.387224	
0.033600	20.379694	
0.033900	20.372164	
0.034200	20.361120	
0.034500	20.341542	
0.034800	20.321462	
0.035100	20.305398	
0.035400	20.290840	
0.035700	20.270760	
0.036000	20.245158	
0.036300	20.214536	
0.036600	20.179898	
0.036900	20.138232	
0.037200	20.102590	
0.037500	20.082510	
0.037800	20.071968	
0.038100	20.063936	
0.038400	20.051386	
0.038700	20.029298	
0.039000	20.011728	
0.039300	20.000684	
0.039600	19.991146	
0.039900	19.963034	
0.040200	19.922372	
0.040500	19.878698	
0.040800	19.846068	
0.041100	19.821470	
0.041400	19.801390	
0.041700	19.785828	
0.042000	19.783318	
0.042300	19.852594	
0.042600	19.904300	
0.042900	19.887232	
0.043200	19.871670	
0.043500	19.856610	
0.043800	19.825988	
0.044100	19.816450	
0.044400	19.815446	
0.044700	19.791852	
0.045000	19.762234	
0.045300	19.732616	
0.045600	19.714042	
0.045900	19.688440	
0.046200	19.646272	
0.046500	19.615148	
0.046800	19.632718	
0.047100	19.615148	
0.047400	19.586032	
0.047700	19.562438	
0.048000	19.550390	
0.048300	19.549888	
0.048600	19.530812	
0.048900	19.482620	
0.049200	19.440452	
0.049500	19.399790	
0.049800	19.350594	
0.050100	19.349088	
0.050400	19.373686	
0.050700	19.353104	
0.051000	19.337040	
0.051300	19.293366	
0.051600	19.246178	
0.051900	19.268266	
0.052200	19.338546	
0.052500	19.307422	
0.052800	19.274792	
0.053100	19.228608	
0.053400	19.179914	
0.053700	19.125698	
0.054000	19.070478	
0.054300	19.029314	
0.054600	19.015760	
0.054900	19.060940	
0.055200	19.121180	
0.055500	19.193970	
0.055800	19.180918	
0.056100	19.134734	
0.056400	19.068470	
0.056700	19.002206	
0.057000	18.949998	
0.057300	18.894276	
0.057600	18.839056	
0.057900	18.779820	
0.058200	18.732632	
0.058500	18.703516	
0.058800	18.668878	
0.059100	18.633738	
0.059400	18.576008	
0.059700	18.548900	
0.060000	18.555928	
0.060300	18.540868	
0.060600	18.525306	
0.060900	18.515266	
0.061200	18.512756	
0.061500	18.564462	
0.061800	18.583538	
0.062100	18.548398	
0.062400	18.529824	
0.062700	18.513258	
0.063000	18.520788	
0.063300	18.551912	
0.063600	18.531330	
0.063900	18.491170	
0.064200	18.452516	
0.064500	18.403822	
0.064800	18.340068	
0.065100	18.265772	
0.065400	18.202520	
0.065700	18.133746	
0.066000	18.053426	
0.066300	17.968588	
0.066600	17.882746	
0.066900	17.822004	
0.067200	17.781844	
0.067500	17.754736	
0.067800	17.721102	
0.068100	17.673412	
0.068400	17.619698	
0.068700	17.573514	
0.069000	17.523314	
0.069300	17.472110	
0.069600	17.428938	
0.069900	17.366188	
0.070200	17.308960	
0.070500	17.278338	
0.070800	17.255748	
0.071100	17.220608	
0.071400	17.169906	
0.071700	17.106152	
0.072000	17.039888	
0.072300	17.008764	
0.072600	16.965090	
0.072900	16.929950	
0.073200	16.899328	
0.073500	16.875734	
0.073800	16.862682	
0.074100	16.852140	
0.074400	16.850634	
0.074700	16.849128	
0.075000	16.841096	
0.075300	16.838084	
0.075600	16.838586	
0.075900	16.846618	
0.076200	16.881256	
0.076500	16.912380	
0.076800	16.905854	
0.077100	16.906356	
0.077400	16.898826	
0.077700	16.873224	
0.078000	16.848626	
0.078300	16.822020	
0.078600	16.793908	
0.078900	16.769812	
0.079200	16.735676	
0.079500	16.707564	
0.079800	16.697524	
0.080100	16.688990	
0.080400	16.678950	
0.080700	16.669914	
0.081000	16.656862	
0.081300	16.647826	
0.081600	16.647324	
0.081900	16.651340	
0.082200	16.645316	
0.082500	16.636782	
0.082800	16.634272	
0.083100	16.635276	
0.083400	16.635276	
0.083700	16.633268	
0.084000	16.633268	
0.084300	16.634774	
0.084600	16.636280	
0.084900	16.630256	
0.085200	16.610678	
0.085500	16.588590	
0.085800	16.561984	
0.086100	16.532366	
0.086400	16.504254	
0.086700	16.482668	
0.087000	16.469616	
0.087300	16.458070	
0.087600	16.449536	
0.087900	16.440500	
0.088200	16.424436	
0.088500	16.421424	
0.088800	16.434476	
0.089100	16.442508	
0.089400	16.443010	
0.089700	16.443512	
0.090000	16.449034	
0.090300	16.458070	
0.090600	16.461584	
0.090900	16.459074	
0.091200	16.453050	
0.091500	16.451544	
0.091800	16.452548	
0.092100	16.444014	
0.092400	16.438492	
0.092700	16.435480	
0.093000	16.423934	
0.093300	16.413894	
0.093600	16.403854	
0.093900	16.390802	
0.094200	16.377750	
0.094500	16.366204	
0.094800	16.348132	
0.095100	16.323032	
0.095400	16.294920	
0.095700	16.270824	
0.096000	16.254760	
0.096300	16.245222	
0.096600	16.237190	
0.096900	16.225644	
0.097200	16.214098	
0.097500	16.206066	
0.097800	16.202552	
0.098100	16.198536	
0.098400	16.198536	
0.098700	16.200042	
0.099000	16.196528	
0.099300	16.218114	
0.099600	16.259780	
0.099900	16.265804	
0.100200	16.259278	
0.100500	16.246728	
0.100800	16.220624	
0.101100	16.182974	
0.101400	16.154360	
0.101700	16.146328	
0.102000	16.150344	
0.102300	16.144822	
0.102600	16.138798	
0.102900	16.140806	
0.103200	16.143818	
0.103500	16.139802	
0.103800	16.138296	
0.104100	16.141810	
0.104400	16.143316	
0.104700	16.144320	
0.105000	16.147834	
0.105300	16.149340	
0.105600	16.148336	
0.105900	16.147332	
0.106200	16.150846	
0.106500	16.155866	
0.106800	16.158878	
0.107100	16.157372	
0.107400	16.153356	
0.107700	16.147834	
0.108000	16.140304	
0.108300	16.132774	
0.108600	16.126750	
0.108900	16.121228	
0.109200	16.114702	
0.109500	16.103156	
0.109800	16.090104	
0.110100	16.076048	
0.110400	16.067514	
0.110700	16.059984	
0.111000	16.051952	
0.111300	16.044422	
0.111600	16.040908	
0.111900	16.040908	
0.112200	16.037896	
0.112500	16.038398	
0.112800	16.037896	
0.113100	16.035386	
0.113400	16.031370	
0.113700	16.032876	
0.114000	16.035888	
0.114300	16.036892	
0.114600	16.034382	
0.114900	16.029362	
0.115200	16.027856	
0.115500	16.023840	
0.115800	16.020326	
0.116100	16.018318	
0.116400	16.016812	
0.116700	16.009282	
0.117000	16.001250	
0.117300	16.005266	
0.117600	16.003760	
0.117900	15.988198	
0.118200	15.957074	
0.118500	15.918420	
0.118800	15.885288	
0.119100	15.872738	
0.119400	15.882778	
0.119700	15.895830	
0.120000	15.903360	
0.120300	15.908380	
0.120600	15.910890	
0.120900	15.910890	
0.121200	15.909384	
0.121500	15.906372	
0.121800	15.903862	
0.122100	15.891312	
0.122400	15.885790	
0.122700	15.884786	
0.123000	15.882276	
0.123300	15.873240	
0.123600	15.868220	
0.123900	15.862698	
0.124200	15.863200	
0.124500	15.866714	
0.124800	15.863200	
0.125100	15.850650	
0.125400	15.841112	
0.125700	15.831574	
0.126000	15.819024	
0.126300	15.805972	
0.126600	15.787398	
0.126900	15.756274	
0.127200	15.742218	
0.127500	15.739708	
0.127800	15.735190	
0.128100	15.731174	
0.128400	15.719126	
0.128700	15.699046	
0.129000	15.685994	
0.129300	15.677962	
0.129600	15.672440	
0.129900	15.670934	
0.130200	15.669428	
0.130500	15.662400	
0.130800	15.649348	
0.131100	15.628766	
0.131400	15.617722	
0.131700	15.605674	
0.132000	15.596638	
0.132300	15.597140	
0.132600	15.603164	
0.132900	15.608686	
0.133200	15.608686	
0.133500	15.605674	
0.133800	15.597140	
0.134100	15.577562	
0.134400	15.559490	
0.134700	15.526860	
0.135000	15.457584	
0.135300	15.392826	
0.135600	15.344132	
0.135900	15.285398	
0.136200	15.223150	
0.136500	15.161906	
0.136800	15.095642	
0.137100	15.032892	
0.137400	14.989720	
0.137700	14.968134	
0.138000	14.950564	
0.138300	14.950062	
0.138600	14.953074	
0.138900	14.949560	
0.139200	14.959600	
0.139500	14.973656	
0.139800	14.978174	
0.140100	14.983696	
0.140400	14.992732	
0.140700	14.990724	
0.141000	15.006286	
0.141300	15.028374	
0.141600	15.035402	
0.141900	15.035402	
0.142200	15.040422	
0.142500	15.036908	
0.142800	15.040924	
0.143100	15.030884	
0.143400	15.023354	
0.143700	15.032892	
0.144000	15.037410	
0.144300	15.044438	
0.144600	15.057992	
0.144900	15.065020	
0.145200	15.071546	
0.145500	15.077068	
0.145800	15.068032	
0.146100	15.068032	
0.146400	15.057490	
0.146700	15.032390	
0.147000	15.020342	
0.147300	15.011808	
0.147600	14.984700	
0.147900	14.940524	
0.148200	14.902372	
0.148500	14.885806	
0.148800	14.881790	
0.149100	14.887312	
0.149400	14.905384	
0.149700	14.922954	
0.150000	14.943034	
0.150300	14.958094	
0.150600	14.969640	
0.150900	14.975162	
0.151200	14.976166	
0.151500	14.973154	
0.151800	14.973656	
0.152100	14.988214	
0.152400	15.000764	
0.152700	15.007792	
0.153000	15.013816	
0.153300	15.010804	
0.153600	14.999760	
0.153900	14.967632	
0.154200	14.913416	
0.154500	14.874762	
0.154800	14.861208	
0.155100	14.852172	
0.155400	14.846650	
0.155700	14.846650	
0.156000	14.846148	
0.156300	14.840626	
0.156600	14.821048	
0.156900	14.790928	
0.157200	14.762816	
0.157500	14.736712	
0.157800	14.717134	
0.158100	14.701572	
0.158400	14.690528	
0.158700	14.679484	
0.159000	14.663922	
0.159300	14.638822	
0.159600	14.616232	
0.159900	14.603682	
0.160200	14.558502	
0.160500	14.552478	
0.160800	14.577578	
0.161100	14.597156	
0.161400	14.614726	
0.161700	14.628782	
0.162000	14.640328	
0.162300	14.639324	
0.162600	14.623260	
0.162900	14.531896	
0.163200	14.455090	
0.163500	14.442540	
0.163800	14.493744	
0.164100	14.538924	
0.164400	14.569044	
0.164700	14.592638	
0.165000	14.618742	
0.165300	14.643340	
0.165600	14.642838	
0.165900	14.598662	
0.166200	14.535410	
0.166500	14.472158	
0.166800	14.421456	
0.167100	14.382802	
0.167400	14.341638	
0.167700	14.286418	
0.168000	14.216640	
0.168300	14.146360	
0.168600	14.074072	
0.168900	14.000278	
0.169200	13.938030	
0.169500	13.893352	
0.169800	13.868252	
0.170100	13.874778	
0.170400	13.871264	
0.170700	13.860220	
0.171000	13.859718	
0.171300	13.884818	
0.171600	13.905400	
0.171900	13.925982	
0.172200	13.938532	
0.172500	13.946564	
0.172800	13.956102	
0.173100	13.964134	
0.173400	13.984716	
0.173700	14.027888	
0.174000	14.073068	
0.174300	14.092646	
0.174600	14.090638	
0.174900	14.111220	
0.175200	14.111722	
0.175500	14.111220	
0.175800	14.097666	
0.176100	14.070558	
0.176400	14.037928	
0.176700	14.005298	
0.177000	13.987226	
0.177300	13.968150	
0.177600	13.941544	
0.177900	13.913432	
0.178200	13.878794	
0.178500	13.834116	
0.178800	13.787932	
0.179100	13.738234	
0.179400	13.672472	
0.179700	13.611730	
0.180000	13.571068	
0.180300	13.557012	
0.180600	13.560526	
0.180900	13.541450	
0.181200	13.520366	
0.181500	13.500788	
0.181800	13.502294	
0.182100	13.519362	
0.182400	13.523880	
0.182700	13.517354	
0.183000	13.503298	
0.183300	13.477696	
0.183600	13.458118	
0.183900	13.436030	
0.184200	13.414946	
0.184500	13.401392	
0.184800	13.388842	
0.185100	13.382818	
0.185400	13.378802	
0.185700	13.371272	
0.186000	13.368260	
0.186300	13.365750	
0.186600	13.354204	
0.186900	13.337638	
0.187200	13.331614	
0.187500	13.332618	
0.187800	13.331112	
0.188100	13.334124	
0.188400	13.336634	
0.188700	13.333622	
0.189000	13.332116	
0.189300	13.330610	
0.189600	13.338140	
0.189900	13.356212	
0.190200	13.370268	
0.190500	13.366754	
0.190800	13.378802	
0.191100	13.389846	
0.191400	13.382818	
0.191700	13.359726	
0.192000	13.338140	
0.192300	13.334124	
0.192600	13.336634	
0.192900	13.330610	
0.193200	13.326594	
0.193500	13.323582	
0.193800	13.321574	
0.194100	13.316052	
0.194400	13.308020	
0.194700	13.301996	
0.195000	13.299486	
0.195300	13.300490	
0.195600	13.301494	
0.195900	13.297980	
0.196200	13.301494	
0.196500	13.299988	
0.196800	13.294968	
0.197100	13.292960	
0.197400	13.296976	
0.197700	13.302498	
0.198000	13.304004	
0.198300	13.299988	
0.198600	13.294968	
0.198900	13.289446	
0.199200	13.294968	
0.199500	13.307016	
0.199800	13.323080	
0.200100	13.351192	
0.200400	13.418460	
0.200700	13.428500	
0.201000	13.431010	
0.201300	13.437536	
0.201600	13.448078	
0.201900	13.459122	
0.202200	13.454102	
0.202500	13.447074	
0.202800	13.444062	
0.203100	13.436532	
0.203400	13.431010	
0.203700	13.433520	
0.204000	13.437034	
0.204300	13.425488	
0.204600	13.405408	
0.204900	13.399886	
0.205200	13.403902	
0.205500	13.412436	
0.205800	13.419966	
0.206100	13.421472	
0.206400	13.423480	
0.206700	13.419464	
0.207000	13.417958	
0.207300	13.414444	
0.207600	13.405910	
0.207900	13.396372	
0.208200	13.390348	
0.208500	13.385830	
0.208800	13.362236	
0.209100	13.345168	
0.209400	13.338140	
0.209700	13.343662	
0.210000	13.342658	
0.210300	13.354204	
0.210600	13.364244	
0.210900	13.351192	
0.211200	13.306514	
0.211500	13.254306	
0.211800	13.216656	
0.212100	13.180010	
0.212400	13.145874	
0.212700	13.123284	
0.213000	13.098686	
0.213300	13.072080	
0.213600	13.056518	
0.213900	13.052502	
0.214200	13.048486	
0.214500	13.046980	
0.214800	13.045976	
0.215100	13.044470	
0.215400	13.044470	
0.215700	13.042964	
0.216000	13.046478	
0.216300	13.046478	
0.216600	13.042964	
0.216900	13.041458	
0.217200	13.042462	
0.217500	13.041458	
0.217800	13.038948	
0.218100	13.035936	
0.218400	13.030414	
0.218700	13.027402	
0.219000	13.028406	
0.219300	13.027402	
0.219600	13.019370	
0.219900	13.007322	
0.220200	13.008828	
0.220500	13.010836	
0.220800	13.011840	
0.221100	13.003808	
0.221400	12.999290	
0.221700	13.008828	
0.222000	13.006318	
0.222300	12.988748	
0.222600	12.982222	
0.222900	12.991258	
0.223200	13.003808	
0.223500	12.997784	
0.223800	12.996278	
0.224100	13.012844	
0.224400	13.019872	
0.224700	13.012342	
0.225000	12.996780	
0.225300	12.981720	
0.225600	12.990756	
0.225900	12.993768	
0.226200	12.991258	
0.226500	12.988246	
0.226800	12.984230	
0.227100	12.979712	
0.227400	12.972182	
0.227700	12.964150	
0.228000	12.962142	
0.228300	12.961640	
0.228600	12.960134	
0.228900	12.955114	
0.229200	12.951600	
0.229500	12.944070	
0.229800	12.937544	
0.230100	12.934030	
0.230400	12.936038	
0.230700	12.941058	
0.231000	12.942062	
0.231300	12.937544	
0.231600	12.938548	
0.231900	12.926500	
0.232200	12.918970	
0.232500	12.916962	
0.232800	12.913950	
0.233100	12.918468	
0.233400	12.929010	
0.233700	12.924994	
0.234000	12.917464	
0.234300	12.910938	
0.234600	12.905416	
0.234900	12.899392	
0.235200	12.901902	
0.235500	12.904914	
0.235800	12.893870	
0.236100	12.885838	
0.236400	12.883328	
0.236700	12.880818	
0.237000	12.880818	
0.237300	12.873288	
0.237600	12.872284	
0.237900	12.872284	
0.238200	12.876802	
0.238500	12.884834	
0.238800	12.891360	
0.239100	12.889854	
0.239400	12.871280	
0.239700	12.862746	
0.240000	12.865256	
0.240300	12.877304	
0.240600	12.893368	
0.240900	12.904412	
0.241200	12.913950	
0.241500	12.920978	
0.241800	12.920978	
0.242100	12.921982	
0.242400	12.922484	
0.242700	12.921982	
0.243000	12.918468	
0.243300	12.914954	
0.243600	12.912444	
0.243900	12.916460	
0.244200	12.923990	
0.244500	12.921480	
0.244800	12.920978	
0.245100	12.914452	
0.245400	12.911942	
0.245700	12.916460	
0.246000	12.919472	
0.246300	12.922986	
0.246600	12.925496	
0.246900	12.922484	
0.247200	12.921982	
0.247500	12.911942	
0.247800	12.901902	
0.248100	12.897384	
0.248400	12.895878	
0.248700	12.891862	
0.249000	12.885336	
0.249300	12.849694	
0.249600	12.822084	
0.249900	12.804514	
0.250200	12.790458	
0.250500	12.794474	
0.250800	12.802004	
0.251100	12.794474	
0.251400	12.779414	
0.251700	12.772386	
0.252000	12.756824	
0.252300	12.744274	
0.252600	12.733230	
0.252900	12.725700	
0.253200	12.717668	
0.253500	12.693572	
0.253800	12.677006	
0.254100	12.663954	
0.254400	12.672990	
0.254700	12.692066	
0.255000	12.713150	
0.255300	12.712648	
0.255600	12.700600	
0.255900	12.699094	
0.256200	12.708632	
0.256500	12.723190	
0.256800	12.726704	
0.257100	12.717668	
0.257400	12.691564	
0.257700	12.682528	
0.258000	12.684536	
0.258300	12.681524	
0.258600	12.684536	
0.258900	12.688552	
0.259200	12.692568	
0.259500	12.702608	
0.259800	12.720178	
0.260100	12.725198	
0.260400	12.733732	
0.260700	12.729716	
0.261000	12.699094	
0.261300	12.677006	
0.261600	12.682528	
0.261900	12.691062	
0.262200	12.716664	
0.262500	12.721684	
0.262800	12.716664	
0.263100	12.688552	
0.263400	12.668472	
0.263700	12.635340	
0.264000	12.623292	
0.264300	12.611746	
0.264600	12.603212	
0.264900	12.586646	
0.265200	12.546988	
0.265500	12.501306	
0.265800	12.476206	
0.266100	12.470182	
0.266400	12.474198	
0.266700	12.482230	
0.267000	12.477712	
0.267300	12.470182	
0.267600	12.467672	
0.267900	12.448596	
0.268200	12.410946	
0.268500	12.372292	
0.268800	12.337152	
0.269100	12.310546	
0.269400	12.296992	
0.269700	12.288458	
0.270000	12.278920	
0.270300	12.274402	
0.270600	12.258338	
0.270900	12.221692	
0.271200	12.176010	
0.271500	12.137858	
0.271800	12.096694	
0.272100	12.059546	
0.272400	12.028924	
0.272700	12.004828	
0.273000	11.988262	
0.273300	11.958644	
0.273600	11.930030	
0.273900	11.924006	
0.274200	11.920994	
0.274500	11.914970	
0.274800	11.914970	
0.275100	11.912460	
0.275400	11.920994	
0.275700	11.930532	
0.276000	11.933042	
0.276300	11.935552	
0.276600	11.940070	
0.276900	11.945090	
0.277200	11.932038	
0.277500	11.909950	
0.277800	11.897400	
0.278100	11.884850	
0.278400	11.868284	
0.278700	11.859750	
0.279000	11.856236	
0.279300	11.852220	
0.279600	11.841176	
0.279900	11.826618	
0.280200	11.830634	
0.280500	11.855232	
0.280800	11.854228	
0.281100	11.844690	
0.281400	11.829630	
0.281700	11.808546	
0.282000	11.793988	
0.282300	11.780936	
0.282600	11.773908	
0.282900	11.739270	
0.283200	11.682042	
0.283500	11.618790	
0.283800	11.598208	
0.284100	11.584152	
0.284400	11.569594	
0.284700	11.564072	
0.285000	11.557044	
0.285300	11.535458	
0.285600	11.514374	
0.285900	11.499816	
0.286200	11.493792	
0.286500	11.504836	
0.286800	11.501322	
0.287100	11.486764	
0.287400	11.477226	
0.287700	11.465680	
0.288000	11.458652	
0.288300	11.450620	
0.288600	11.434556	
0.288900	11.404938	
0.289200	11.370802	
0.289500	11.318092	
0.289800	11.269398	
0.290100	11.223214	
0.290400	11.182050	
0.290700	11.143396	
0.291000	11.117292	
0.291300	11.096208	
0.291600	11.081650	
0.291900	11.072614	
0.292200	11.053036	
0.292500	11.022916	
0.292800	10.996310	
0.293100	10.975226	
0.293400	10.950628	
0.293700	10.926532	
0.294000	10.909464	
0.294300	10.892396	
0.294600	10.876834	
0.294900	10.864284	
0.295200	10.861774	
0.295500	10.871814	
0.295800	10.880348	
0.296100	10.881352	
0.296400	10.874826	
0.296700	10.860268	
0.297000	10.839184	
0.297300	10.804044	
0.297600	10.777438	
0.297900	10.757358	
0.298200	10.732258	
0.298500	10.717700	
0.298800	10.714688	
0.299100	10.705652	
0.299400	10.685572	
